x,y,theta,x_d,y_d,theta_d,v,w,state_cost,min_Traj_cost,t_mppi
14.124214175972156,16.739257814362645,131.38046297736722,6.630228519439697,23.366687774658203,131.38046,0.08600732684135437,0.029304005205631256,500.4132444946871,2902.3984375,0.0981605052947998
14.146755223046057,16.712402344681323,131.39110766148306,6.630228519439697,23.366687774658203,131.39111,0.12436778098344803,-0.005551183130592108,503.8884413481504,2833.998291015625,0.013422250747680664
14.158668522140943,16.698120123241097,131.39643505283897,6.630228519439697,23.366687774658203,131.39642,0.1798349916934967,-0.021023577079176903,505.73601697899494,2747.237060546875,0.009168148040771484
14.175045016454533,16.67858887044713,131.40446625361912,6.630228519439697,23.366687774658203,131.40446,0.2691498398780823,0.06012847647070885,508.27461463068295,2678.512939453125,0.00897836685180664
14.1921615631436,16.65808105887845,131.41647585678865,6.630228519439697,23.366687774658203,131.41647,0.34614574909210205,0.02843674086034298,510.94117712233077,2621.46533203125,0.010591506958007812
14.20882416155655,16.638183596078306,131.42624312756627,6.630228519439697,23.366687774658203,131.42624,0.41808420419692993,0.0631125345826149,513.5394019393984,2558.858642578125,0.008698701858520508
14.222454074188136,16.621948244050145,131.44270136705484,6.630228519439697,23.366687774658203,131.4427,0.5004512667655945,-0.0021474789828062057,515.6670010496111,2495.23486328125,0.008699655532836914
14.245281223673373,16.594726564828306,131.4526056975343,6.630228519439697,23.366687774658203,131.4526,0.5332249402999878,-0.055272407829761505,519.2424315784872,2446.06494140625,0.009060859680175781
14.263160709233489,16.573486329521984,131.45922718127062,6.630228519439697,23.366687774658203,131.45923,0.6377322673797607,0.013471870683133602,522.0461984409553,2389.926513671875,0.009101390838623047
14.27315140137216,16.561523438431323,131.46760623311204,6.630228519439697,23.366687774658203,131.4676,0.6995143294334412,-0.014621800743043423,523.6226591111053,2334.971923828125,0.011947154998779297
14.29191971279215,16.539062505587935,131.48541854677916,6.630228519439697,23.366687774658203,131.48541,0.711308479309082,-0.024330778047442436,526.5898937857069,2282.230712890625,0.014043807983398438
14.322166445665061,16.503051759675145,131.51720529173653,6.630228519439697,23.366687774658203,131.5172,0.891326367855072,-0.0747901126742363,531.3770420353833,2239.62353515625,0.011197805404663086
14.33900070603704,16.482910160906613,131.526317217012,6.630228519439697,23.366687774658203,131.52632,0.9466288089752197,-0.04972265288233757,534.0578143022217,2198.905029296875,0.008518457412719727
14.343177799601108,16.478027346078306,131.53086397041886,6.630228519439697,23.366687774658203,131.53087,1.0270564556121826,-0.008709975518286228,534.7161454931249,2144.70849609375,0.0146636962890625
14.385776523966342,16.427246096543968,131.55353944699888,6.630228519439697,23.366687774658203,131.55353,1.151395559310913,0.025057824328541756,541.5218782723307,2092.951904296875,0.009446859359741211
14.402893069433048,16.406738283112645,131.57029964836806,6.630228519439697,23.366687774658203,131.5703,1.2026864290237427,0.017718911170959473,544.2760556579431,2038.755615234375,0.011995077133178711
14.419071201700717,16.387695319019258,131.57677675647585,6.630228519439697,23.366687774658203,131.57677,1.2191674709320068,0.07757162302732468,546.8620301243818,1997.879150390625,0.00807952880859375
14.436683658277616,16.366699221543968,131.58962053071156,6.630228519439697,23.366687774658203,131.58961,1.2438125610351562,0.0989236906170845,549.7029078920964,1948.651611328125,0.00962972640991211
14.471694951236714,16.32531738607213,131.59595897641046,6.630228519439697,23.366687774658203,131.59596,1.3564236164093018,0.07709500193595886,555.3474637512811,1933.431884765625,0.012295722961425781
14.488842014339752,16.3048095703125,131.60851153314601,6.630228519439697,23.366687774658203,131.6085,1.3962810039520264,0.12952159345149994,558.1396491761908,1904.9254150390625,0.008114099502563477
14.507278445293196,16.282958986703306,131.6177165903977,6.630228519439697,23.366687774658203,131.61772,1.4757024049758911,0.11818861216306686,561.1356453784477,1884.9781494140625,0.008464574813842773
14.518867495469749,16.269287109375,131.62382641500983,6.630228519439697,23.366687774658203,131.62383,1.4649326801300049,0.14363130927085876,563.0186054885146,1867.5313720703125,0.012637853622436523
14.525489811901934,16.261718755587935,131.62694000148736,6.630228519439697,23.366687774658203,131.62694,1.5527859926223755,0.1663394719362259,564.078678191004,1839.11767578125,0.013763427734375
14.530681613308843,16.255859375931323,131.61209238375983,6.630228519439697,23.366687774658203,131.61209,1.5944887399673462,0.21473504602909088,564.9051980228362,1815.211181640625,0.01175689697265625
14.531841282732785,16.25451660528779,131.61559946092896,6.630228519439697,23.366687774658203,131.6156,1.632292628288269,0.2117057740688324,565.0923150172996,1775.0535888671875,0.010158777236938477
14.534435276174918,16.251586920116097,131.61589023149028,6.630228519439697,23.366687774658203,131.61589,1.668152093887329,0.23130327463150024,565.5057231176227,1758.4932861328125,0.007716178894042969
14.53549194673542,16.250366213731468,131.618207733364,6.630228519439697,23.366687774658203,131.61821,1.6873875856399536,0.19543281197547913,565.6761120672502,1730.41357421875,0.01011967658996582
14.533775332733057,16.25207519577816,131.6437676416239,6.630228519439697,23.366687774658203,131.64377,1.6613467931747437,0.21517300605773926,565.4188218873887,1720.7803955078125,0.007933616638183594
14.528278355079237,16.257812502793968,131.70211134620993,6.630228519439697,23.366687774658203,131.70212,1.7718864679336548,0.24267461895942688,564.5764941858429,1690.1090087890625,0.008301496505737305
14.521301274304278,16.265258790459484,131.82696691056668,6.630228519439697,23.366687774658203,131.82697,1.7614585161209106,0.2718847692012787,563.4966142009187,1657.44873046875,0.009320735931396484
14.518718724430073,16.267944342456758,131.86309748901704,6.630228519439697,23.366687774658203,131.8631,1.7983225584030151,0.23718903958797455,563.1021801522613,1640.9097900390625,0.007808208465576172
14.496833805111237,16.29089355794713,132.09618752736097,6.630228519439697,23.366687774658203,132.09618,1.8231223821640015,0.22668154537677765,559.7517125889865,1600.1990966796875,0.007871866226196289
14.476497653638944,16.31201172294095,132.21481309650528,6.630228519439697,23.366687774658203,132.21481,1.8953323364257812,0.22472348809242249,556.6619676048035,1569.7186279296875,0.011533737182617188
14.452812198200263,16.336669927928597,132.43503089660285,6.630228519439697,23.366687774658203,132.43503,1.8797812461853027,0.25020095705986023,553.0698316827398,1538.8865966796875,0.00943136215209961
14.431297305913176,16.35888672294095,132.83541731756702,6.630228519439697,23.366687774658203,132.8354,1.875197172164917,0.28566333651542664,549.8297489587012,1532.3397216796875,0.01556539535522461
14.393157962476835,16.398193360771984,133.09174067245908,6.630228519439697,23.366687774658203,133.09174,1.8571408987045288,0.25030121207237244,544.1149396696817,1502.3028564453125,0.010489940643310547
14.367359164403751,16.42431640950963,133.37695573665496,6.630228519439697,23.366687774658203,133.37695,1.8824138641357422,0.28078874945640564,540.2985539443839,1464.9271240234375,0.009185552597045898
14.34836578834802,16.443481448106468,133.48262028194233,6.630228519439697,23.366687774658203,133.48262,1.820900321006775,0.25261783599853516,537.5021437085879,1456.037109375,0.008832454681396484
14.283466342138126,16.507812502328306,134.06851267989816,6.630228519439697,23.366687774658203,134.06851,1.87129807472229,0.257802814245224,528.0810958608015,1412.8475341796875,0.007947444915771484
14.245239262585528,16.54492187872529,134.75767971296364,6.630228519439697,23.366687774658203,134.75768,1.889428734779358,0.2609090805053711,522.624392785699,1386.493408203125,0.009323358535766602
14.215198519872501,16.573730470612645,135.00856574964737,6.630228519439697,23.366687774658203,135.00856,1.878143072128296,0.2596721351146698,518.3801942102575,1367.259765625,0.00928354263305664
14.209896092070267,16.57885742140934,135.06324624798287,6.630228519439697,23.366687774658203,135.06325,1.9382117986679077,0.2650758624076843,517.63000708037,1352.3594970703125,0.0086669921875
14.198101048124954,16.590087893418968,135.09416009664392,6.630228519439697,23.366687774658203,135.09416,1.8884273767471313,0.20574982464313507,515.975002804203,1358.353271484375,0.008156299591064453
14.184600833687,16.60278320685029,135.24469986408275,6.630228519439697,23.366687774658203,135.24469,1.9259588718414307,0.23613397777080536,514.0947303233945,1353.68798828125,0.008741617202758789
14.166316990449559,16.620117189828306,135.45689894508203,6.630228519439697,23.366687774658203,135.4569,1.9203402996063232,0.25060853362083435,511.54422049489887,1353.8209228515625,0.008447885513305664
14.155536654405296,16.630004885606468,135.51900026546366,6.630228519439697,23.366687774658203,135.519,1.8732143640518188,0.22261938452720642,510.0657943691092,1342.844970703125,0.012381553649902344
14.116497044102289,16.666625979356468,135.7913887935196,6.630228519439697,23.366687774658203,135.79138,1.8684648275375366,0.2477797120809555,504.6752224210786,1315.2257080078125,0.014645099639892578
14.092391972080804,16.688964845612645,136.00699031815358,6.630228519439697,23.366687774658203,136.00699,1.8692991733551025,0.23774878680706024,501.3793345551672,1299.19580078125,0.009770631790161133
14.038249973207712,16.738525392487645,136.6228647749203,6.630228519439697,23.366687774658203,136.62286,1.865686297416687,0.2288190722465515,494.0565921195403,1282.126708984375,0.009616374969482422
13.998588566028047,16.774169926531613,136.81863293438394,6.630228519439697,23.366687774658203,136.81863,1.8610637187957764,0.25723615288734436,488.7701067701356,1260.7208251953125,0.008308887481689453
13.973884585837368,16.796020512469113,137.38135967153084,6.630228519439697,23.366687774658203,137.38136,1.8953895568847656,0.22769469022750854,485.5147634597139,1243.584228515625,0.007836580276489258
13.939636234776117,16.82641601981595,137.26151998175362,6.630228519439697,23.366687774658203,137.26152,1.9287638664245605,0.2309810221195221,481.01297888103466,1220.72265625,0.011555671691894531
13.898704532766715,16.86230468796566,137.87896598982726,6.630228519439697,23.366687774658203,137.87897,1.9294495582580566,0.22142909467220306,475.68871447381105,1206.234375,0.008618831634521484
13.810379032511264,16.937744145281613,138.75489731764966,6.630228519439697,23.366687774658203,138.7549,1.8949346542358398,0.1926790475845337,464.4293879003186,1171.467529296875,0.00851750373840332
13.774307255458552,16.968017580453306,138.59427913326948,6.630228519439697,23.366687774658203,138.59427,1.889095425605774,0.17508170008659363,459.90420620321447,1170.9031982421875,0.009516000747680664
13.737693789240438,16.998168946709484,139.30267764616383,6.630228519439697,23.366687774658203,139.30267,1.872127652168274,0.20692583918571472,455.3704731168053,1148.748291015625,0.007391929626464844
13.721954350126907,17.011596681550145,139.38853115803005,6.630228519439697,23.366687774658203,139.38852,1.9229680299758911,0.18800726532936096,453.3987902966879,1143.059814453125,0.010343790054321289
13.705303195281886,17.025634771212935,139.47866421202139,6.630228519439697,23.366687774658203,139.47867,1.9159400463104248,0.2108822464942932,451.32817430622845,1126.785888671875,0.009842872619628906
13.68518066831166,17.042480471078306,139.62035098449354,6.630228519439697,23.366687774658203,139.62035,1.896881103515625,0.20290057361125946,448.83973920763214,1125.589599609375,0.00842428207397461
13.636665348778479,17.082397463731468,139.90360003504247,6.630228519439697,23.366687774658203,139.9036,1.8859295845031738,0.21795955300331116,442.91230877761257,1106.4713134765625,0.008973360061645508
13.608489993959665,17.105102541856468,140.18084940409122,6.630228519439697,23.366687774658203,140.18085,1.899957299232483,0.2456289380788803,439.51791417205186,1092.5535888671875,0.008201837539672852
13.576309207826853,17.131103517953306,140.43031652989305,6.630228519439697,23.366687774658203,140.43031,1.92854905128479,0.25229862332344055,435.65273976025475,1080.2926025390625,0.013059377670288086
13.54462433164008,17.156127934344113,140.6091297734568,6.630228519439697,23.366687774658203,140.60913,1.9535750150680542,0.2082812488079071,431.8996148894818,1070.225341796875,0.010407447814941406
13.495651248085778,17.194702154956758,141.0166050989239,6.630228519439697,23.366687774658203,141.0166,1.9071601629257202,0.19653338193893433,426.1371786640581,1048.4383544921875,0.011894702911376953
13.429630282800645,17.245239259675145,141.50072836223438,6.630228519439697,23.366687774658203,141.50073,1.8706305027008057,0.20329667627811432,418.51998130592125,1016.552490234375,0.013149499893188477
13.401592258596793,17.266357424668968,141.7736907235493,6.630228519439697,23.366687774658203,141.77368,1.903788685798645,0.1756759136915207,415.32698633485677,1003.4519653320312,0.008909225463867188
13.34011459723115,17.312866213265806,142.3067724632182,6.630228519439697,23.366687774658203,142.30676,1.8738980293273926,0.1929510086774826,408.3566333705952,979.6220092773438,0.007894515991210938
13.26732254459057,17.367187501862645,142.75047600142034,6.630228519439697,23.366687774658203,142.75047,1.8710485696792603,0.15593600273132324,400.22510310983694,964.3516845703125,0.018271446228027344
13.247943881317042,17.381469727959484,142.95356501422458,6.630228519439697,23.366687774658203,142.95357,1.8631073236465454,0.16500407457351685,398.08495838677715,962.1798706054688,0.007935762405395508
13.206581118167378,17.411987306550145,143.09411648393373,6.630228519439697,23.366687774658203,143.09412,1.9466432332992554,0.17368070781230927,393.53435583839325,950.099365234375,0.008157730102539062
13.123188022698741,17.472167971078306,143.69911883481072,6.630228519439697,23.366687774658203,143.69911,1.9562820196151733,0.1793917566537857,384.51943412878757,929.3377075195312,0.013545513153076172
13.110366825305391,17.481445313896984,143.79866346479557,6.630228519439697,23.366687774658203,143.79866,1.9812564849853516,0.20378294587135315,383.14135642547336,933.7549438476562,0.010987520217895508
13.037284855614416,17.533691409043968,143.8939295483889,6.630228519439697,23.366687774658203,143.89394,1.8952248096466064,0.1531943529844284,375.3710874809275,927.5882568359375,0.008699655532836914
12.992904666229151,17.565063477959484,144.3807189330155,6.630228519439697,23.366687774658203,144.38072,1.930148959159851,0.18693116307258606,370.712461144842,904.2737426757812,0.014019012451171875
12.902267459896393,17.628173829056323,144.81168916495676,6.630228519439697,23.366687774658203,144.81168,1.911587119102478,0.1804424226284027,361.3450738723621,886.1773681640625,0.008721113204956055
12.885444644256495,17.63977051200345,145.15788411888622,6.630228519439697,23.366687774658203,145.15788,1.8874353170394897,0.17497684061527252,359.6265505073054,882.241943359375,0.015112161636352539
12.88207245268859,17.642089848406613,145.1782385803706,6.630228519439697,23.366687774658203,145.17824,1.9143553972244263,0.17376475036144257,359.282869914725,880.4570922851562,0.0122833251953125
12.878269199514762,17.644897463265806,145.1949330079748,6.630228519439697,23.366687774658203,145.19493,1.931401014328003,0.1766098439693451,358.88448353708384,881.723876953125,0.008010149002075195
12.877696994808502,17.64550781575963,145.20729119144045,6.630228519439697,23.366687774658203,145.20729,1.9112803936004639,0.16143812239170074,358.8138123641486,887.5520629882812,0.011444807052612305
12.875446323130745,17.646850588265806,145.2329878722775,6.630228519439697,23.366687774658203,145.23299,1.9179370403289795,0.1288006603717804,358.59641427188467,880.3132934570312,0.008183479309082031
12.870826725149527,17.64990234328434,145.27955379001622,6.630228519439697,23.366687774658203,145.27956,1.9000000953674316,0.1425655335187912,358.133508167386,883.6263427734375,0.008141517639160156
12.857154849742074,17.659057619981468,145.34870702448222,6.630228519439697,23.366687774658203,145.34871,1.8879472017288208,0.17527975142002106,356.758267527941,881.869140625,0.007996559143066406
12.844711307319812,17.667480470612645,145.43629700328756,6.630228519439697,23.366687774658203,145.4363,1.8607579469680786,0.17375046014785767,355.5038010767222,871.5674438476562,0.008524417877197266
12.812107089906931,17.689819341059774,145.646380751058,6.630228519439697,23.366687774658203,145.64638,1.8785384893417358,0.19302667677402496,352.21228936194143,865.173583984375,0.011312007904052734
12.791694644489326,17.70385742234066,145.68732064111245,6.630228519439697,23.366687774658203,145.68732,1.835014820098877,0.20441871881484985,350.1565620463145,859.3438110351562,0.008546590805053711
12.767707829130813,17.719848637934774,145.94749605462496,6.630228519439697,23.366687774658203,145.9475,1.8943158388137817,0.22412005066871643,347.7772225645897,850.259765625,0.010083198547363281
12.71402359456988,17.75500488234684,146.21033738235346,6.630228519439697,23.366687774658203,146.21033,1.9226216077804565,0.195169597864151,342.5177370001916,832.2105712890625,0.009723901748657227
12.683380131144077,17.774658201728016,146.36234628054987,6.630228519439697,23.366687774658203,146.36235,1.8861956596374512,0.19165752828121185,339.5571958940254,828.6691284179688,0.009331941604614258
12.647140505490825,17.797607423271984,146.62391659984308,6.630228519439697,23.366687774658203,146.62392,1.8973468542099,0.1661539524793625,336.0894290404089,817.5133056640625,0.008388519287109375
12.580513004446402,17.839721684344113,147.02696698945138,6.630228519439697,23.366687774658203,147.02696,1.9346204996109009,0.19912946224212646,329.76619807996667,798.2886962890625,0.011921405792236328
12.525951388000976,17.873779301997274,147.54405063669677,6.630228519439697,23.366687774658203,147.54405,1.9074325561523438,0.18728581070899963,324.65795815953334,786.9107666015625,0.007928609848022461
12.47780609538313,17.903686524834484,147.75725058489056,6.630228519439697,23.366687774658203,147.75725,1.8667514324188232,0.18267017602920532,320.19273081126,769.1370239257812,0.014987945556640625
12.415050510200672,17.94201660482213,147.86085132704386,6.630228519439697,23.366687774658203,147.86084,1.8433235883712769,0.17495714128017426,314.4561138282122,749.6563110351562,0.00983572006225586
12.332542423042469,17.991821293719113,148.69706793724788,6.630228519439697,23.366687774658203,148.69707,1.9253073930740356,0.17481952905654907,307.02786771572016,718.864501953125,0.00874185562133789
12.305461886106059,18.00769042922184,148.8560645511563,6.630228519439697,23.366687774658203,148.85606,1.9243525266647339,0.15800555050373077,304.635631572586,705.4270629882812,0.009473323822021484
12.287879947107285,18.018188478425145,148.9208031427399,6.630228519439697,23.366687774658203,148.92079,1.8851537704467773,0.16531702876091003,303.0773219939731,689.411865234375,0.008100509643554688
12.268573764013126,18.029663091059774,149.0357778865109,6.630228519439697,23.366687774658203,149.03578,1.8426204919815063,0.1941075176000595,301.37384785171355,681.3486938476562,0.009808778762817383
12.23302460013656,18.050537110771984,149.2165860860177,6.630228519439697,23.366687774658203,149.21658,1.9037845134735107,0.24926714599132538,298.2639090150501,665.1578979492188,0.010018348693847656
12.217136385617778,18.059814457781613,149.31746799681892,6.630228519439697,23.366687774658203,149.31746,1.8917360305786133,0.19716905057430267,296.88221953269624,628.8779296875,0.007962226867675781
12.180477145011537,18.08117676200345,149.43024903997335,6.630228519439697,23.366687774658203,149.43025,1.9060747623443604,0.17574791610240936,293.7094323527838,617.5779418945312,0.009113311767578125
